BEGIN_SCAN_DATA
	FORMAT=CC-Export V1.9                  
	FILE_CREATION_DATE=20-Aug-2015 13:39:09
	LAST_MODIFIED=20-Aug-2015 13:39:09
	BEGIN_SCAN  1
		TASK_NAME=tba PDD Profiles
		PROGRAM=tbaScan
		MEAS_DATE=25-May-2015 15:15:29
		LINAC=M2619
		MODALITY=X
		ISOCENTER=1000.00
		INPLANE_AXIS=Solid
		CROSSPLANE_AXIS=MLC
		DEPTH_AXIS=Depth
		INPLANE_AXIS_DIR=TARGET_GUN
		CROSSPLANE_AXIS_DIR=LEFT_RIGHT
		DEPTH_AXIS_DIR=UP_DOWN
		ENERGY=10.00
		NOMINAL_DMAX=22.00
		SSD=900.00
		SCD=450.00
		WEDGE_ANGLE=0.00
		FIELD_INPLANE=50.00
		FIELD_CROSSPLANE=50.00
		FIELD_TYPE=RECTANGULAR
		GANTRY=0.00
		GANTRY_UPRIGHT_POSITION=0
		GANTRY_ROTATION=CW
		COLL_ANGLE=0.00
		COLL_OFFSET_INPLANE=0.00
		COLL_OFFSET_CROSSPLANE=0.00
		SCAN_DEVICE=MP3
		SCAN_DEVICE_SETUP=BARA_TARGET_GUN
		ELECTROMETER=TANDEM
		RANGE_FIELD=AUTO
		RANGE_REFERENCE=AUTO
		DETECTOR=THIMBLE_CHAMBER
		DETECTOR_SUBCODE=SEMIFLEX
		DETECTOR_RADIUS=2.75
		DETECTOR_NAME=PTW 31002 Semiflex
		DETECTOR_SN=0000
		DETECTOR_CALIBRATION=250000000.00
		DETECTOR_IS_CALIBRATED=0
		DETECTOR_REFERENCE=THIMBLE_CHAMBER
		DETECTOR_REFERENCE_SUBCODE=SEMIFLEX
		DETECTOR_REFERENCE_RADIUS=2.75
		DETECTOR_REFERENCE_NAME=PTW 31002 Semiflex
		DETECTOR_REFERENCE_SN=0000
		DETECTOR_REFERENCE_IS_CALIBRATED=0
		DETECTOR_REFERENCE_CALIBRATION=250000000.00
		DETECTOR_HV=300.0
		DETECTOR_REFERENCE_HV=400.0
		REF_FIELD_DEPTH=100.00
		REF_FIELD_DEFINED=ISOCENTER
		REF_FIELD_INPLANE=100.00
		REF_FIELD_CROSSPLANE=100.00
		REF_SCAN_POSITIONS=-5.00;-4.00;-3.00;-2.00;-1.00;0.00;1.00;2.00;3.00;4.00;5.00;6.00;7.00;8.00;9.00;10.00;11.00;12.00;13.00;14.00;15.00;16.00;17.00;18.00;19.00;20.00;21.00;22.00;23.00;24.00;25.00;26.00;27.00;28.00;29.00;30.00;31.00;32.00;33.00;34.00;35.00;36.00;37.00;38.00;39.00;40.00;41.00;42.00;43.00;44.00;45.00;46.00;47.00;48.00;49.00;50.00;52.50;55.00;57.50;60.00;62.50;65.00;67.50;70.00;75.00;80.00;85.00;90.00;95.00;100.00;105.00;110.00;115.00;120.00;125.00;130.00;135.00;140.00;145.00;150.00;155.00;160.00;165.00;170.00;175.00;180.00;185.00;190.00;195.00;200.00;205.00;210.00;215.00;220.00;225.00;230.00;235.00;240.00;245.00;250.00;255.00;260.00;265.00;270.00;275.00;280.00;285.00;290.00;295.00;300.00;305.00;310.00;315.00;320.00;325.00;330.00;335.00;340.00;345.00;350.00;
		SCAN_CURVETYPE=PDD
		SCAN_OFFAXIS_INPLANE=0.00
		SCAN_OFFAXIS_CROSSPLANE=0.00
		SCAN_ANGLE=0.00
		SCAN_DIAGONAL=NOT_DIAGONAL
		SCAN_DIRECTION=NEGATIVE
		MEAS_MEDIUM=WATER
		MEAS_PRESET=MONITOR_TRIGGER
		MEAS_TRIGGER=300
		TIMEOUT=120.00
		EDGE=1
		MEAS_UNIT=cGy/MU
		SCAN_SPEEDS=20.00; 8.00;40.00; 25.00;100.00; 40.00;400.00; 50.00;
		DELAY_TIMES=40.00; 0.500;150.00; 0.000;400.00; 0.000;
		INCLINATION_ANGLE=0.00
		PRESSURE=1013.25
		TEMPERATURE=20.00
		NORM_TEMPERATURE=20.00
		CORRECTION_FACTOR=1.0000
		EXPECTED_MAX_DOSE_RATE=7.00
		CORRECTIONS=SMOOTHED_CORR;MODIFIED_CORR;
		BEGIN_DATA
			0.00		13.724E-03
			1.00		15.218E-03
			2.00		17.841E-03
			3.00		21.393E-03
			4.00		24.824E-03
			5.00		27.569E-03
			6.00		29.830E-03
			7.00		31.727E-03
			8.00		33.301E-03
			9.00		34.633E-03
			10.00		35.723E-03
			11.00		36.651E-03
			12.00		37.418E-03
			13.00		38.105E-03
			14.00		38.629E-03
			15.00		39.073E-03
			16.00		39.437E-03
			17.00		39.719E-03
			18.00		39.961E-03
			19.00		40.123E-03
			20.00		40.244E-03
			21.00		40.325E-03
			22.00		40.365E-03
			23.00		40.365E-03
			24.00		40.365E-03
			25.00		40.284E-03
			26.00		40.204E-03
			27.00		40.123E-03
			28.00		40.002E-03
			29.00		39.881E-03
			30.00		39.760E-03
			31.00		39.638E-03
			32.00		39.477E-03
			33.00		39.316E-03
			34.00		39.154E-03
			35.00		38.993E-03
			36.00		38.831E-03
			37.00		38.670E-03
			38.00		38.508E-03
			39.00		38.306E-03
			40.00		38.145E-03
			41.00		37.983E-03
			42.00		37.782E-03
			43.00		37.580E-03
			44.00		37.418E-03
			45.00		37.257E-03
			46.00		37.055E-03
			47.00		36.894E-03
			48.00		36.692E-03
			49.00		36.490E-03
			50.00		36.328E-03
			52.50		35.884E-03
			55.00		35.440E-03
			57.50		34.996E-03
			60.00		34.552E-03
			62.50		34.108E-03
			65.00		33.664E-03
			67.50		33.261E-03
			70.00		32.817E-03
			75.00		32.009E-03
			80.00		31.162E-03
			85.00		30.354E-03
			90.00		29.588E-03
			95.00		28.821E-03
			100.00		28.094E-03
			105.00		27.367E-03
			110.00		26.681E-03
			115.00		25.955E-03
			120.00		25.309E-03
			125.00		24.623E-03
			130.00		24.017E-03
			135.00		23.371E-03
			140.00		22.766E-03
			145.00		22.201E-03
			150.00		21.595E-03
			155.00		21.071E-03
			160.00		20.505E-03
			165.00		19.981E-03
			170.00		19.496E-03
			175.00		18.972E-03
			180.00		18.487E-03
			185.00		18.043E-03
			190.00		17.559E-03
			195.00		17.155E-03
			200.00		16.711E-03
			205.00		16.267E-03
			210.00		15.863E-03
			215.00		15.460E-03
			220.00		15.056E-03
			225.00		14.693E-03
			230.00		14.330E-03
			235.00		13.966E-03
			240.00		13.603E-03
			245.00		13.280E-03
			250.00		12.957E-03
			255.00		12.634E-03
			260.00		12.311E-03
			265.00		11.988E-03
			270.00		11.706E-03
			275.00		11.423E-03
			280.00		11.141E-03
			285.00		10.858E-03
			290.00		10.576E-03
			295.00		10.333E-03
			300.00		10.091E-03
			305.00		9.8087E-03
			310.00		9.5665E-03
			315.00		9.3243E-03
			320.00		9.1225E-03
			325.00		8.8803E-03
			330.00		8.6785E-03
			335.00		8.4363E-03
			340.00		8.2345E-03
			345.00		8.0326E-03
			350.00		7.8712E-03
		END_DATA
	END_SCAN  1
	BEGIN_SCAN  2
		TASK_NAME=tba PDD Profiles
		PROGRAM=tbaScan
		MEAS_DATE=25-May-2015 15:36:32
		LINAC=M2619
		MODALITY=X
		ISOCENTER=1000.00
		INPLANE_AXIS=Solid
		CROSSPLANE_AXIS=MLC
		DEPTH_AXIS=Depth
		INPLANE_AXIS_DIR=TARGET_GUN
		CROSSPLANE_AXIS_DIR=LEFT_RIGHT
		DEPTH_AXIS_DIR=UP_DOWN
		ENERGY=10.00
		NOMINAL_DMAX=22.00
		SSD=900.00
		SCD=450.00
		WEDGE_ANGLE=0.00
		FIELD_INPLANE=70.00
		FIELD_CROSSPLANE=70.00
		FIELD_TYPE=RECTANGULAR
		GANTRY=0.00
		GANTRY_UPRIGHT_POSITION=0
		GANTRY_ROTATION=CW
		COLL_ANGLE=0.00
		COLL_OFFSET_INPLANE=0.00
		COLL_OFFSET_CROSSPLANE=0.00
		SCAN_DEVICE=MP3
		SCAN_DEVICE_SETUP=BARA_TARGET_GUN
		ELECTROMETER=TANDEM
		RANGE_FIELD=AUTO
		RANGE_REFERENCE=AUTO
		DETECTOR=THIMBLE_CHAMBER
		DETECTOR_SUBCODE=SEMIFLEX
		DETECTOR_RADIUS=2.75
		DETECTOR_NAME=PTW 31002 Semiflex
		DETECTOR_SN=0000
		DETECTOR_CALIBRATION=250000000.00
		DETECTOR_IS_CALIBRATED=0
		DETECTOR_REFERENCE=THIMBLE_CHAMBER
		DETECTOR_REFERENCE_SUBCODE=SEMIFLEX
		DETECTOR_REFERENCE_RADIUS=2.75
		DETECTOR_REFERENCE_NAME=PTW 31002 Semiflex
		DETECTOR_REFERENCE_SN=0000
		DETECTOR_REFERENCE_IS_CALIBRATED=0
		DETECTOR_REFERENCE_CALIBRATION=250000000.00
		DETECTOR_HV=300.0
		DETECTOR_REFERENCE_HV=400.0
		REF_FIELD_DEPTH=100.00
		REF_FIELD_DEFINED=ISOCENTER
		REF_FIELD_INPLANE=100.00
		REF_FIELD_CROSSPLANE=100.00
		REF_SCAN_POSITIONS=-5.00;-4.00;-3.00;-2.00;-1.00;0.00;1.00;2.00;3.00;4.00;5.00;6.00;7.00;8.00;9.00;10.00;11.00;12.00;13.00;14.00;15.00;16.00;17.00;18.00;19.00;20.00;21.00;22.00;23.00;24.00;25.00;26.00;27.00;28.00;29.00;30.00;31.00;32.00;33.00;34.00;35.00;36.00;37.00;38.00;39.00;40.00;41.00;42.00;43.00;44.00;45.00;46.00;47.00;48.00;49.00;50.00;52.50;55.00;57.50;60.00;62.50;65.00;67.50;70.00;75.00;80.00;85.00;90.00;95.00;100.00;105.00;110.00;115.00;120.00;125.00;130.00;135.00;140.00;145.00;150.00;155.00;160.00;165.00;170.00;175.00;180.00;185.00;190.00;195.00;200.00;205.00;210.00;215.00;220.00;225.00;230.00;235.00;240.00;245.00;250.00;255.00;260.00;265.00;270.00;275.00;280.00;285.00;290.00;295.00;300.00;305.00;310.00;315.00;320.00;325.00;330.00;335.00;340.00;345.00;350.00;
		SCAN_CURVETYPE=PDD
		SCAN_OFFAXIS_INPLANE=0.00
		SCAN_OFFAXIS_CROSSPLANE=0.00
		SCAN_ANGLE=0.00
		SCAN_DIAGONAL=NOT_DIAGONAL
		SCAN_DIRECTION=NEGATIVE
		MEAS_MEDIUM=WATER
		MEAS_PRESET=MONITOR_TRIGGER
		MEAS_TRIGGER=300
		TIMEOUT=120.00
		EDGE=1
		MEAS_UNIT=cGy/MU
		SCAN_SPEEDS=20.00; 8.00;40.00; 25.00;100.00; 40.00;400.00; 50.00;
		DELAY_TIMES=40.00; 0.500;150.00; 0.000;400.00; 0.000;
		INCLINATION_ANGLE=0.00
		PRESSURE=1013.25
		TEMPERATURE=20.00
		NORM_TEMPERATURE=20.00
		CORRECTION_FACTOR=1.0000
		EXPECTED_MAX_DOSE_RATE=7.00
		CORRECTIONS=SMOOTHED_CORR;MODIFIED_CORR;
		BEGIN_DATA
			0.00		15.401E-03
			1.00		17.103E-03
			2.00		19.676E-03
			3.00		22.790E-03
			4.00		25.986E-03
			5.00		28.809E-03
			6.00		31.133E-03
			7.00		33.043E-03
			8.00		34.620E-03
			9.00		35.949E-03
			10.00		37.069E-03
			11.00		37.983E-03
			12.00		38.730E-03
			13.00		39.352E-03
			14.00		39.892E-03
			15.00		40.307E-03
			16.00		40.639E-03
			17.00		40.930E-03
			18.00		41.137E-03
			19.00		41.303E-03
			20.00		41.428E-03
			21.00		41.469E-03
			22.00		41.511E-03
			23.00		41.511E-03
			24.00		41.469E-03
			25.00		41.386E-03
			26.00		41.303E-03
			27.00		41.220E-03
			28.00		41.137E-03
			29.00		41.013E-03
			30.00		40.888E-03
			31.00		40.764E-03
			32.00		40.639E-03
			33.00		40.473E-03
			34.00		40.349E-03
			35.00		40.141E-03
			36.00		39.975E-03
			37.00		39.809E-03
			38.00		39.643E-03
			39.00		39.477E-03
			40.00		39.269E-03
			41.00		39.103E-03
			42.00		38.937E-03
			43.00		38.771E-03
			44.00		38.605E-03
			45.00		38.398E-03
			46.00		38.190E-03
			47.00		38.024E-03
			48.00		37.858E-03
			49.00		37.692E-03
			50.00		37.484E-03
			52.50		37.069E-03
			55.00		36.613E-03
			57.50		36.156E-03
			60.00		35.741E-03
			62.50		35.284E-03
			65.00		34.869E-03
			67.50		34.454E-03
			70.00		34.039E-03
			75.00		33.209E-03
			80.00		32.420E-03
			85.00		31.631E-03
			90.00		30.843E-03
			95.00		30.095E-03
			100.00		29.348E-03
			105.00		28.601E-03
			110.00		27.895E-03
			115.00		27.190E-03
			120.00		26.526E-03
			125.00		25.861E-03
			130.00		25.197E-03
			135.00		24.575E-03
			140.00		23.952E-03
			145.00		23.329E-03
			150.00		22.748E-03
			155.00		22.208E-03
			160.00		21.627E-03
			165.00		21.088E-03
			170.00		20.548E-03
			175.00		20.050E-03
			180.00		19.552E-03
			185.00		19.054E-03
			190.00		18.597E-03
			195.00		18.099E-03
			200.00		17.684E-03
			205.00		17.227E-03
			210.00		16.812E-03
			215.00		16.355E-03
			220.00		15.982E-03
			225.00		15.567E-03
			230.00		15.193E-03
			235.00		14.819E-03
			240.00		14.446E-03
			245.00		14.072E-03
			250.00		13.740E-03
			255.00		13.408E-03
			260.00		13.076E-03
			265.00		12.744E-03
			270.00		12.453E-03
			275.00		12.121E-03
			280.00		11.831E-03
			285.00		11.540E-03
			290.00		11.249E-03
			295.00		11.000E-03
			300.00		10.710E-03
			305.00		10.461E-03
			310.00		10.212E-03
			315.00		9.9626E-03
			320.00		9.7136E-03
			325.00		9.5060E-03
			330.00		9.2570E-03
			335.00		9.0494E-03
			340.00		8.8003E-03
			345.00		8.5928E-03
			350.00		8.3852E-03
		END_DATA
	END_SCAN  2
	BEGIN_SCAN  3
		TASK_NAME=tba PDD Profiles
		PROGRAM=tbaScan
		MEAS_DATE=26-May-2015 12:00:26
		LINAC=M2619
		MODALITY=X
		ISOCENTER=1000.00
		INPLANE_AXIS=Solid
		CROSSPLANE_AXIS=MLC
		DEPTH_AXIS=Depth
		INPLANE_AXIS_DIR=TARGET_GUN
		CROSSPLANE_AXIS_DIR=LEFT_RIGHT
		DEPTH_AXIS_DIR=UP_DOWN
		ENERGY=10.00
		NOMINAL_DMAX=22.00
		SSD=900.00
		SCD=450.00
		WEDGE_ANGLE=0.00
		FIELD_INPLANE=100.00
		FIELD_CROSSPLANE=100.00
		FIELD_TYPE=RECTANGULAR
		GANTRY=0.00
		GANTRY_UPRIGHT_POSITION=0
		GANTRY_ROTATION=CW
		COLL_ANGLE=0.00
		COLL_OFFSET_INPLANE=0.00
		COLL_OFFSET_CROSSPLANE=0.00
		SCAN_DEVICE=MP3
		SCAN_DEVICE_SETUP=BARA_TARGET_GUN
		ELECTROMETER=TANDEM
		RANGE_FIELD=AUTO
		RANGE_REFERENCE=AUTO
		DETECTOR=THIMBLE_CHAMBER
		DETECTOR_SUBCODE=SEMIFLEX
		DETECTOR_RADIUS=2.75
		DETECTOR_NAME=PTW 31002 Semiflex
		DETECTOR_SN=0000
		DETECTOR_CALIBRATION=250000000.00
		DETECTOR_IS_CALIBRATED=0
		DETECTOR_REFERENCE=THIMBLE_CHAMBER
		DETECTOR_REFERENCE_SUBCODE=SEMIFLEX
		DETECTOR_REFERENCE_RADIUS=2.75
		DETECTOR_REFERENCE_NAME=PTW 31002 Semiflex
		DETECTOR_REFERENCE_SN=0000
		DETECTOR_REFERENCE_IS_CALIBRATED=0
		DETECTOR_REFERENCE_CALIBRATION=250000000.00
		DETECTOR_HV=300.0
		REF_FIELD_DEPTH=100.00
		REF_FIELD_DEFINED=ISOCENTER
		REF_FIELD_INPLANE=100.00
		REF_FIELD_CROSSPLANE=100.00
		REF_SCAN_POSITIONS=-5.00;-4.00;-3.00;-2.00;-1.00;0.00;1.00;2.00;3.00;4.00;5.00;6.00;7.00;8.00;9.00;10.00;11.00;12.00;13.00;14.00;15.00;16.00;17.00;18.00;19.00;20.00;21.00;22.00;23.00;24.00;25.00;26.00;27.00;28.00;29.00;30.00;31.00;32.00;33.00;34.00;35.00;36.00;37.00;38.00;39.00;40.00;41.00;42.00;43.00;44.00;45.00;46.00;47.00;48.00;49.00;50.00;52.50;55.00;57.50;60.00;62.50;65.00;67.50;70.00;75.00;80.00;85.00;90.00;95.00;100.00;105.00;110.00;115.00;120.00;125.00;130.00;135.00;140.00;145.00;150.00;155.00;160.00;165.00;170.00;175.00;180.00;185.00;190.00;195.00;200.00;205.00;210.00;215.00;220.00;225.00;230.00;235.00;240.00;245.00;250.00;255.00;260.00;265.00;270.00;275.00;280.00;285.00;290.00;295.00;300.00;305.00;310.00;315.00;320.00;325.00;330.00;335.00;340.00;345.00;350.00;
		SCAN_CURVETYPE=PDD
		SCAN_OFFAXIS_INPLANE=0.00
		SCAN_OFFAXIS_CROSSPLANE=0.00
		SCAN_ANGLE=0.00
		SCAN_DIAGONAL=NOT_DIAGONAL
		SCAN_DIRECTION=NEGATIVE
		MEAS_MEDIUM=WATER
		MEAS_PRESET=MONITOR_TRIGGER
		MEAS_TRIGGER=300
		TIMEOUT=120.00
		EDGE=1
		MEAS_UNIT=cGy/MU
		SCAN_SPEEDS=20.00; 8.00;40.00; 25.00;100.00; 40.00;400.00; 50.00;
		DELAY_TIMES=40.00; 0.500;150.00; 0.000;400.00; 0.000;
		INCLINATION_ANGLE=0.00
		PRESSURE=1013.25
		TEMPERATURE=20.00
		NORM_TEMPERATURE=20.00
		CORRECTION_FACTOR=1.0000
		EXPECTED_MAX_DOSE_RATE=7.00
		CORRECTIONS=SMOOTHED_CORR;MODIFIED_CORR;
		BEGIN_DATA
			0.00		16.660E-03
			1.00		18.268E-03
			2.00		20.907E-03
			3.00		24.371E-03
			4.00		27.588E-03
			5.00		30.185E-03
			6.00		32.289E-03
			7.00		34.021E-03
			8.00		35.464E-03
			9.00		36.618E-03
			10.00		37.608E-03
			11.00		38.433E-03
			12.00		39.093E-03
			13.00		39.629E-03
			14.00		40.041E-03
			15.00		40.412E-03
			16.00		40.660E-03
			17.00		40.866E-03
			18.00		41.031E-03
			19.00		41.113E-03
			20.00		41.196E-03
			21.00		41.237E-03
			22.00		41.237E-03
			23.00		41.237E-03
			24.00		41.155E-03
			25.00		41.072E-03
			26.00		40.990E-03
			27.00		40.907E-03
			28.00		40.783E-03
			29.00		40.660E-03
			30.00		40.536E-03
			31.00		40.371E-03
			32.00		40.247E-03
			33.00		40.082E-03
			34.00		39.917E-03
			35.00		39.752E-03
			36.00		39.588E-03
			37.00		39.423E-03
			38.00		39.258E-03
			39.00		39.093E-03
			40.00		38.928E-03
			41.00		38.763E-03
			42.00		38.598E-03
			43.00		38.433E-03
			44.00		38.227E-03
			45.00		38.062E-03
			46.00		37.897E-03
			47.00		37.732E-03
			48.00		37.567E-03
			49.00		37.402E-03
			50.00		37.237E-03
			52.50		36.783E-03
			55.00		36.371E-03
			57.50		36.000E-03
			60.00		35.588E-03
			62.50		35.175E-03
			65.00		34.763E-03
			67.50		34.350E-03
			70.00		33.979E-03
			75.00		33.196E-03
			80.00		32.412E-03
			85.00		31.670E-03
			90.00		30.928E-03
			95.00		30.185E-03
			100.00		29.484E-03
			105.00		28.783E-03
			110.00		28.082E-03
			115.00		27.423E-03
			120.00		26.763E-03
			125.00		26.144E-03
			130.00		25.526E-03
			135.00		24.907E-03
			140.00		24.289E-03
			145.00		23.711E-03
			150.00		23.134E-03
			155.00		22.598E-03
			160.00		22.021E-03
			165.00		21.484E-03
			170.00		20.990E-03
			175.00		20.454E-03
			180.00		19.959E-03
			185.00		19.464E-03
			190.00		19.010E-03
			195.00		18.557E-03
			200.00		18.103E-03
			205.00		17.691E-03
			210.00		17.237E-03
			215.00		16.825E-03
			220.00		16.412E-03
			225.00		16.000E-03
			230.00		15.629E-03
			235.00		15.258E-03
			240.00		14.887E-03
			245.00		14.515E-03
			250.00		14.186E-03
			255.00		13.814E-03
			260.00		13.484E-03
			265.00		13.155E-03
			270.00		12.866E-03
			275.00		12.536E-03
			280.00		12.247E-03
			285.00		11.959E-03
			290.00		11.670E-03
			295.00		11.381E-03
			300.00		11.093E-03
			305.00		10.845E-03
			310.00		10.598E-03
			315.00		10.350E-03
			320.00		10.103E-03
			325.00		9.8556E-03
			330.00		9.6082E-03
			335.00		9.3608E-03
			340.00		9.1546E-03
			345.00		8.9484E-03
			350.00		8.7010E-03
		END_DATA
	END_SCAN  3
	BEGIN_SCAN  4
		TASK_NAME=tba PDD Profiles
		PROGRAM=tbaScan
		MEAS_DATE=25-May-2015 14:55:11
		LINAC=M2619
		MODALITY=X
		ISOCENTER=1000.00
		INPLANE_AXIS=Solid
		CROSSPLANE_AXIS=MLC
		DEPTH_AXIS=Depth
		INPLANE_AXIS_DIR=TARGET_GUN
		CROSSPLANE_AXIS_DIR=LEFT_RIGHT
		DEPTH_AXIS_DIR=UP_DOWN
		ENERGY=10.00
		NOMINAL_DMAX=22.00
		SSD=900.00
		SCD=450.00
		WEDGE_ANGLE=0.00
		FIELD_INPLANE=150.00
		FIELD_CROSSPLANE=150.00
		FIELD_TYPE=RECTANGULAR
		GANTRY=0.00
		GANTRY_UPRIGHT_POSITION=0
		GANTRY_ROTATION=CW
		COLL_ANGLE=0.00
		COLL_OFFSET_INPLANE=0.00
		COLL_OFFSET_CROSSPLANE=0.00
		SCAN_DEVICE=MP3
		SCAN_DEVICE_SETUP=BARA_TARGET_GUN
		ELECTROMETER=TANDEM
		RANGE_FIELD=AUTO
		RANGE_REFERENCE=AUTO
		DETECTOR=THIMBLE_CHAMBER
		DETECTOR_SUBCODE=SEMIFLEX
		DETECTOR_RADIUS=2.75
		DETECTOR_NAME=PTW 31002 Semiflex
		DETECTOR_SN=0000
		DETECTOR_CALIBRATION=250000000.00
		DETECTOR_IS_CALIBRATED=0
		DETECTOR_REFERENCE=THIMBLE_CHAMBER
		DETECTOR_REFERENCE_SUBCODE=SEMIFLEX
		DETECTOR_REFERENCE_RADIUS=2.75
		DETECTOR_REFERENCE_NAME=PTW 31002 Semiflex
		DETECTOR_REFERENCE_SN=0000
		DETECTOR_REFERENCE_IS_CALIBRATED=0
		DETECTOR_REFERENCE_CALIBRATION=250000000.00
		DETECTOR_HV=300.0
		DETECTOR_REFERENCE_HV=400.0
		REF_FIELD_DEPTH=100.00
		REF_FIELD_DEFINED=ISOCENTER
		REF_FIELD_INPLANE=100.00
		REF_FIELD_CROSSPLANE=100.00
		REF_SCAN_POSITIONS=-5.00;-4.00;-3.00;-2.00;-1.00;0.00;1.00;2.00;3.00;4.00;5.00;6.00;7.00;8.00;9.00;10.00;11.00;12.00;13.00;14.00;15.00;16.00;17.00;18.00;19.00;20.00;21.00;22.00;23.00;24.00;25.00;26.00;27.00;28.00;29.00;30.00;31.00;32.00;33.00;34.00;35.00;36.00;37.00;38.00;39.00;40.00;41.00;42.00;43.00;44.00;45.00;46.00;47.00;48.00;49.00;50.00;52.50;55.00;57.50;60.00;62.50;65.00;67.50;70.00;75.00;80.00;85.00;90.00;95.00;100.00;105.00;110.00;115.00;120.00;125.00;130.00;135.00;140.00;145.00;150.00;155.00;160.00;165.00;170.00;175.00;180.00;185.00;190.00;195.00;200.00;205.00;210.00;215.00;220.00;225.00;230.00;235.00;240.00;245.00;250.00;255.00;260.00;265.00;270.00;275.00;280.00;285.00;290.00;295.00;300.00;305.00;310.00;315.00;320.00;325.00;330.00;335.00;340.00;345.00;350.00;
		SCAN_CURVETYPE=PDD
		SCAN_OFFAXIS_INPLANE=0.00
		SCAN_OFFAXIS_CROSSPLANE=0.00
		SCAN_ANGLE=0.00
		SCAN_DIAGONAL=NOT_DIAGONAL
		SCAN_DIRECTION=NEGATIVE
		MEAS_MEDIUM=WATER
		MEAS_PRESET=MONITOR_TRIGGER
		MEAS_TRIGGER=300
		TIMEOUT=120.00
		EDGE=1
		MEAS_UNIT=cGy/MU
		SCAN_SPEEDS=20.00; 8.00;40.00; 25.00;100.00; 40.00;400.00; 50.00;
		DELAY_TIMES=40.00; 0.500;150.00; 0.000;400.00; 0.000;
		INCLINATION_ANGLE=0.00
		PRESSURE=1013.25
		TEMPERATURE=20.00
		NORM_TEMPERATURE=20.00
		CORRECTION_FACTOR=1.0000
		EXPECTED_MAX_DOSE_RATE=7.00
		CORRECTIONS=SMOOTHED_CORR;MODIFIED_CORR;
		BEGIN_DATA
			0.00		20.285E-03
			1.00		22.062E-03
			2.00		24.663E-03
			3.00		27.870E-03
			4.00		30.991E-03
			5.00		33.592E-03
			6.00		35.629E-03
			7.00		37.276E-03
			8.00		38.619E-03
			9.00		39.660E-03
			10.00		40.527E-03
			11.00		41.263E-03
			12.00		41.827E-03
			13.00		42.260E-03
			14.00		42.607E-03
			15.00		42.867E-03
			16.00		43.041E-03
			17.00		43.171E-03
			18.00		43.257E-03
			19.00		43.344E-03
			20.00		43.344E-03
			21.00		43.344E-03
			22.00		43.301E-03
			23.00		43.214E-03
			24.00		43.127E-03
			25.00		42.997E-03
			26.00		42.911E-03
			27.00		42.781E-03
			28.00		42.650E-03
			29.00		42.520E-03
			30.00		42.347E-03
			31.00		42.174E-03
			32.00		42.044E-03
			33.00		41.870E-03
			34.00		41.697E-03
			35.00		41.524E-03
			36.00		41.350E-03
			37.00		41.177E-03
			38.00		41.003E-03
			39.00		40.830E-03
			40.00		40.657E-03
			41.00		40.483E-03
			42.00		40.310E-03
			43.00		40.180E-03
			44.00		40.007E-03
			45.00		39.833E-03
			46.00		39.660E-03
			47.00		39.486E-03
			48.00		39.313E-03
			49.00		39.140E-03
			50.00		39.010E-03
			52.50		38.576E-03
			55.00		38.143E-03
			57.50		37.753E-03
			60.00		37.319E-03
			62.50		36.929E-03
			65.00		36.539E-03
			67.50		36.106E-03
			70.00		35.715E-03
			75.00		34.935E-03
			80.00		34.198E-03
			85.00		33.418E-03
			90.00		32.681E-03
			95.00		31.945E-03
			100.00		31.251E-03
			105.00		30.558E-03
			110.00		29.864E-03
			115.00		29.171E-03
			120.00		28.520E-03
			125.00		27.870E-03
			130.00		27.220E-03
			135.00		26.613E-03
			140.00		26.006E-03
			145.00		25.400E-03
			150.00		24.836E-03
			155.00		24.229E-03
			160.00		23.666E-03
			165.00		23.146E-03
			170.00		22.582E-03
			175.00		22.062E-03
			180.00		21.542E-03
			185.00		21.065E-03
			190.00		20.545E-03
			195.00		20.068E-03
			200.00		19.591E-03
			205.00		19.158E-03
			210.00		18.725E-03
			215.00		18.291E-03
			220.00		17.858E-03
			225.00		17.468E-03
			230.00		17.034E-03
			235.00		16.644E-03
			240.00		16.254E-03
			245.00		15.864E-03
			250.00		15.517E-03
			255.00		15.127E-03
			260.00		14.780E-03
			265.00		14.434E-03
			270.00		14.087E-03
			275.00		13.783E-03
			280.00		13.480E-03
			285.00		13.133E-03
			290.00		12.830E-03
			295.00		12.526E-03
			300.00		12.223E-03
			305.00		11.963E-03
			310.00		11.660E-03
			315.00		11.399E-03
			320.00		11.139E-03
			325.00		10.879E-03
			330.00		10.619E-03
			335.00		10.359E-03
			340.00		10.142E-03
			345.00		9.8824E-03
			350.00		9.6657E-03
		END_DATA
	END_SCAN  4
	BEGIN_SCAN  5
		TASK_NAME=tba PDD Profiles
		PROGRAM=tbaScan
		MEAS_DATE=26-May-2015 16:26:15
		LINAC=M2619
		MODALITY=X
		ISOCENTER=1000.00
		INPLANE_AXIS=Solid
		CROSSPLANE_AXIS=MLC
		DEPTH_AXIS=Depth
		INPLANE_AXIS_DIR=TARGET_GUN
		CROSSPLANE_AXIS_DIR=LEFT_RIGHT
		DEPTH_AXIS_DIR=UP_DOWN
		ENERGY=10.00
		NOMINAL_DMAX=22.00
		SSD=900.00
		SCD=450.00
		WEDGE_ANGLE=0.00
		FIELD_INPLANE=20.00
		FIELD_CROSSPLANE=20.00
		FIELD_TYPE=RECTANGULAR
		GANTRY=0.00
		GANTRY_UPRIGHT_POSITION=0
		GANTRY_ROTATION=CW
		COLL_ANGLE=0.00
		COLL_OFFSET_INPLANE=0.00
		COLL_OFFSET_CROSSPLANE=0.00
		SCAN_DEVICE=MP3
		SCAN_DEVICE_SETUP=BARA_TARGET_GUN
		ELECTROMETER=TANDEM
		RANGE_FIELD=AUTO
		RANGE_REFERENCE=AUTO
		DETECTOR=THIMBLE_CHAMBER
		DETECTOR_RADIUS=1.45
		DETECTOR_NAME=PTW 31016 PinPoint 3D
		DETECTOR_SN=0000
		DETECTOR_CALIBRATION=2500000000.00
		DETECTOR_IS_CALIBRATED=0
		DETECTOR_REFERENCE=THIMBLE_CHAMBER
		DETECTOR_REFERENCE_SUBCODE=SEMIFLEX
		DETECTOR_REFERENCE_RADIUS=2.75
		DETECTOR_REFERENCE_NAME=PTW 31002 Semiflex
		DETECTOR_REFERENCE_SN=0000
		DETECTOR_REFERENCE_IS_CALIBRATED=0
		DETECTOR_REFERENCE_CALIBRATION=250000000.00
		DETECTOR_HV=300.0
		REF_FIELD_DEPTH=100.00
		REF_FIELD_DEFINED=ISOCENTER
		REF_FIELD_INPLANE=100.00
		REF_FIELD_CROSSPLANE=100.00
		REF_SCAN_POSITIONS=-5.00;-4.00;-3.00;-2.00;-1.00;0.00;1.00;2.00;3.00;4.00;5.00;6.00;7.00;8.00;9.00;10.00;11.00;12.00;13.00;14.00;15.00;16.00;17.00;18.00;19.00;20.00;21.00;22.00;23.00;24.00;25.00;26.00;27.00;28.00;29.00;30.00;31.00;32.00;33.00;34.00;35.00;36.00;37.00;38.00;39.00;40.00;41.00;42.00;43.00;44.00;45.00;46.00;47.00;48.00;49.00;50.00;52.50;55.00;57.50;60.00;62.50;65.00;67.50;70.00;75.00;80.00;85.00;90.00;95.00;100.00;105.00;110.00;115.00;120.00;125.00;130.00;135.00;140.00;145.00;150.00;155.00;160.00;165.00;170.00;175.00;180.00;185.00;190.00;195.00;200.00;205.00;210.00;215.00;220.00;225.00;230.00;235.00;240.00;245.00;250.00;255.00;260.00;265.00;270.00;275.00;280.00;285.00;290.00;295.00;300.00;305.00;310.00;315.00;320.00;325.00;330.00;335.00;340.00;345.00;350.00;
		SCAN_CURVETYPE=PDD
		SCAN_OFFAXIS_INPLANE=0.00
		SCAN_OFFAXIS_CROSSPLANE=0.00
		SCAN_ANGLE=0.00
		SCAN_DIAGONAL=NOT_DIAGONAL
		SCAN_DIRECTION=NEGATIVE
		MEAS_MEDIUM=WATER
		MEAS_PRESET=MONITOR_TRIGGER
		MEAS_TRIGGER=300
		TIMEOUT=120.00
		EDGE=1
		MEAS_UNIT=cGy/MU
		SCAN_SPEEDS=20.00; 8.00;40.00; 25.00;100.00; 40.00;400.00; 50.00;
		DELAY_TIMES=40.00; 0.500;150.00; 0.000;400.00; 0.000;
		INCLINATION_ANGLE=0.00
		PRESSURE=1013.25
		TEMPERATURE=20.00
		NORM_TEMPERATURE=20.00
		CORRECTION_FACTOR=1.0000
		EXPECTED_MAX_DOSE_RATE=7.00
		CORRECTIONS=SMOOTHED_CORR;MODIFIED_CORR;
		BEGIN_DATA
			0.00		11.251E-03
			1.00		13.501E-03
			2.00		17.399E-03
			3.00		21.538E-03
			4.00		24.994E-03
			5.00		27.887E-03
			6.00		30.218E-03
			7.00		32.187E-03
			8.00		33.794E-03
			9.00		35.160E-03
			10.00		36.245E-03
			11.00		37.169E-03
			12.00		37.893E-03
			13.00		38.495E-03
			14.00		38.978E-03
			15.00		39.339E-03
			16.00		39.661E-03
			17.00		39.902E-03
			18.00		40.022E-03
			19.00		40.103E-03
			20.00		40.183E-03
			21.00		40.183E-03
			22.00		40.143E-03
			23.00		40.103E-03
			24.00		40.022E-03
			25.00		39.902E-03
			26.00		39.781E-03
			27.00		39.661E-03
			28.00		39.540E-03
			29.00		39.379E-03
			30.00		39.219E-03
			31.00		39.018E-03
			32.00		38.857E-03
			33.00		38.656E-03
			34.00		38.455E-03
			35.00		38.254E-03
			36.00		38.093E-03
			37.00		37.893E-03
			38.00		37.692E-03
			39.00		37.491E-03
			40.00		37.290E-03
			41.00		37.089E-03
			42.00		36.888E-03
			43.00		36.687E-03
			44.00		36.486E-03
			45.00		36.285E-03
			46.00		36.084E-03
			47.00		35.883E-03
			48.00		35.683E-03
			49.00		35.522E-03
			50.00		35.321E-03
			52.50		34.839E-03
			55.00		34.397E-03
			57.50		33.914E-03
			60.00		33.472E-03
			62.50		32.990E-03
			65.00		32.548E-03
			67.50		32.106E-03
			70.00		31.704E-03
			75.00		30.820E-03
			80.00		29.977E-03
			85.00		29.173E-03
			90.00		28.409E-03
			95.00		27.646E-03
			100.00		26.882E-03
			105.00		26.159E-03
			110.00		25.436E-03
			115.00		24.753E-03
			120.00		24.110E-03
			125.00		23.427E-03
			130.00		22.824E-03
			135.00		22.221E-03
			140.00		21.659E-03
			145.00		21.096E-03
			150.00		20.534E-03
			155.00		20.011E-03
			160.00		19.489E-03
			165.00		18.966E-03
			170.00		18.484E-03
			175.00		18.002E-03
			180.00		17.520E-03
			185.00		17.078E-03
			190.00		16.636E-03
			195.00		16.194E-03
			200.00		15.792E-03
			205.00		15.390E-03
			210.00		14.988E-03
			215.00		14.627E-03
			220.00		14.225E-03
			225.00		13.863E-03
			230.00		13.501E-03
			235.00		13.180E-03
			240.00		12.859E-03
			245.00		12.537E-03
			250.00		12.216E-03
			255.00		11.894E-03
			260.00		11.573E-03
			265.00		11.291E-03
			270.00		11.010E-03
			275.00		10.729E-03
			280.00		10.488E-03
			285.00		10.206E-03
			290.00		9.9654E-03
			295.00		9.7243E-03
			300.00		9.4832E-03
			305.00		9.2421E-03
			310.00		9.0010E-03
			315.00		8.8001E-03
			320.00		8.5590E-03
			325.00		8.3581E-03
			330.00		8.1571E-03
			335.00		7.9562E-03
			340.00		7.7553E-03
			345.00		7.5544E-03
			350.00		7.3937E-03
		END_DATA
	END_SCAN  5
	BEGIN_SCAN  6
		TASK_NAME=tba PDD Profiles
		PROGRAM=tbaScan
		MEAS_DATE=25-May-2015 15:00:22
		LINAC=M2619
		MODALITY=X
		ISOCENTER=1000.00
		INPLANE_AXIS=Solid
		CROSSPLANE_AXIS=MLC
		DEPTH_AXIS=Depth
		INPLANE_AXIS_DIR=TARGET_GUN
		CROSSPLANE_AXIS_DIR=LEFT_RIGHT
		DEPTH_AXIS_DIR=UP_DOWN
		ENERGY=10.00
		NOMINAL_DMAX=22.00
		SSD=900.00
		SCD=450.00
		WEDGE_ANGLE=0.00
		FIELD_INPLANE=200.00
		FIELD_CROSSPLANE=200.00
		FIELD_TYPE=RECTANGULAR
		GANTRY=0.00
		GANTRY_UPRIGHT_POSITION=0
		GANTRY_ROTATION=CW
		COLL_ANGLE=0.00
		COLL_OFFSET_INPLANE=0.00
		COLL_OFFSET_CROSSPLANE=0.00
		SCAN_DEVICE=MP3
		SCAN_DEVICE_SETUP=BARA_TARGET_GUN
		ELECTROMETER=TANDEM
		RANGE_FIELD=AUTO
		RANGE_REFERENCE=AUTO
		DETECTOR=THIMBLE_CHAMBER
		DETECTOR_SUBCODE=SEMIFLEX
		DETECTOR_RADIUS=2.75
		DETECTOR_NAME=PTW 31002 Semiflex
		DETECTOR_SN=0000
		DETECTOR_CALIBRATION=250000000.00
		DETECTOR_IS_CALIBRATED=0
		DETECTOR_REFERENCE=THIMBLE_CHAMBER
		DETECTOR_REFERENCE_SUBCODE=SEMIFLEX
		DETECTOR_REFERENCE_RADIUS=2.75
		DETECTOR_REFERENCE_NAME=PTW 31002 Semiflex
		DETECTOR_REFERENCE_SN=0000
		DETECTOR_REFERENCE_IS_CALIBRATED=0
		DETECTOR_REFERENCE_CALIBRATION=250000000.00
		DETECTOR_HV=300.0
		DETECTOR_REFERENCE_HV=400.0
		REF_FIELD_DEPTH=100.00
		REF_FIELD_DEFINED=ISOCENTER
		REF_FIELD_INPLANE=100.00
		REF_FIELD_CROSSPLANE=100.00
		REF_SCAN_POSITIONS=-5.00;-4.00;-3.00;-2.00;-1.00;0.00;1.00;2.00;3.00;4.00;5.00;6.00;7.00;8.00;9.00;10.00;11.00;12.00;13.00;14.00;15.00;16.00;17.00;18.00;19.00;20.00;21.00;22.00;23.00;24.00;25.00;26.00;27.00;28.00;29.00;30.00;31.00;32.00;33.00;34.00;35.00;36.00;37.00;38.00;39.00;40.00;41.00;42.00;43.00;44.00;45.00;46.00;47.00;48.00;49.00;50.00;52.50;55.00;57.50;60.00;62.50;65.00;67.50;70.00;75.00;80.00;85.00;90.00;95.00;100.00;105.00;110.00;115.00;120.00;125.00;130.00;135.00;140.00;145.00;150.00;155.00;160.00;165.00;170.00;175.00;180.00;185.00;190.00;195.00;200.00;205.00;210.00;215.00;220.00;225.00;230.00;235.00;240.00;245.00;250.00;255.00;260.00;265.00;270.00;275.00;280.00;285.00;290.00;295.00;300.00;305.00;310.00;315.00;320.00;325.00;330.00;335.00;340.00;345.00;350.00;
		SCAN_CURVETYPE=PDD
		SCAN_OFFAXIS_INPLANE=0.00
		SCAN_OFFAXIS_CROSSPLANE=0.00
		SCAN_ANGLE=0.00
		SCAN_DIAGONAL=NOT_DIAGONAL
		SCAN_DIRECTION=NEGATIVE
		MEAS_MEDIUM=WATER
		MEAS_PRESET=MONITOR_TRIGGER
		MEAS_TRIGGER=300
		TIMEOUT=120.00
		EDGE=1
		MEAS_UNIT=cGy/MU
		SCAN_SPEEDS=20.00; 8.00;40.00; 25.00;100.00; 40.00;400.00; 50.00;
		DELAY_TIMES=40.00; 0.500;150.00; 0.000;400.00; 0.000;
		INCLINATION_ANGLE=0.00
		PRESSURE=1013.25
		TEMPERATURE=20.00
		NORM_TEMPERATURE=20.00
		CORRECTION_FACTOR=1.0000
		EXPECTED_MAX_DOSE_RATE=7.00
		CORRECTIONS=SMOOTHED_CORR;MODIFIED_CORR;
		BEGIN_DATA
			0.00		22.953E-03
			1.00		24.644E-03
			2.00		27.313E-03
			3.00		30.693E-03
			4.00		33.763E-03
			5.00		36.165E-03
			6.00		37.988E-03
			7.00		39.456E-03
			8.00		40.657E-03
			9.00		41.592E-03
			10.00		42.303E-03
			11.00		42.926E-03
			12.00		43.371E-03
			13.00		43.727E-03
			14.00		44.038E-03
			15.00		44.216E-03
			16.00		44.350E-03
			17.00		44.439E-03
			18.00		44.483E-03
			19.00		44.483E-03
			20.00		44.483E-03
			21.00		44.394E-03
			22.00		44.305E-03
			23.00		44.216E-03
			24.00		44.127E-03
			25.00		43.994E-03
			26.00		43.860E-03
			27.00		43.727E-03
			28.00		43.593E-03
			29.00		43.460E-03
			30.00		43.282E-03
			31.00		43.149E-03
			32.00		42.971E-03
			33.00		42.793E-03
			34.00		42.659E-03
			35.00		42.481E-03
			36.00		42.303E-03
			37.00		42.125E-03
			38.00		41.947E-03
			39.00		41.814E-03
			40.00		41.636E-03
			41.00		41.458E-03
			42.00		41.280E-03
			43.00		41.102E-03
			44.00		40.969E-03
			45.00		40.791E-03
			46.00		40.613E-03
			47.00		40.435E-03
			48.00		40.257E-03
			49.00		40.079E-03
			50.00		39.901E-03
			52.50		39.501E-03
			55.00		39.101E-03
			57.50		38.700E-03
			60.00		38.300E-03
			62.50		37.900E-03
			65.00		37.499E-03
			67.50		37.099E-03
			70.00		36.743E-03
			75.00		35.942E-03
			80.00		35.186E-03
			85.00		34.474E-03
			90.00		33.718E-03
			95.00		33.006E-03
